time,order_temperature,temperature,tempéraure max_palier,puissance,proportional_coeff,coeff_integral,derivative_coeff,proportionnel,integral,derive
0.257672499999984,0,0,0,0.0,12,1200,20,0,0.0,0.0
0.5738239000000078,-7.0,0,0,-104.01106529899079,12,1200,20,-84.0,-0.011065298990779751,-20
0.8841097000000104,-15.0,0,0,-145.04519673696234,12,1200,20,-125,-0.04519673696233717,-20
1.1954538999999897,-23.0,0,0,-145.0591553979507,12,1200,20,-125,-0.0591553979506999,-20
1.5116301999999848,-31.0,0,0,-145.08536760092886,12,1200,20,-125,-0.08536760092885899,-20
1.8284542000000101,-39.0,0,0,-145.1108883999076,12,1200,20,-125,-0.11088839990760185,-20
2.154288899999983,-47.0,0,0,-145.14010892088322,12,1200,20,-125,-0.14010892088323096,-20
2.47133740000001,-55.0,0,0,-145.16169473486525,12,1200,20,-125,-0.1616947348652681,-20
2.7879620999999872,-63.0,0,0,-145.1868085728443,12,1200,20,-125,-0.18680857284431265,-20
3.0965993000000083,-71.0,0,0,-145.20678692382768,12,1200,20,-125,-0.20678692382769165,-20
3.409709300000003,-79.0,0,0,-145.2348324998043,12,1200,20,-125,-0.23483249980430224,-20
3.726913400000001,-87.0,0,0,-145.2632794027806,12,1200,20,-125,-0.2632794027805987,-20
4.044057699999996,-95.0,0,0,-145.2886013127595,12,1200,20,-125,-0.2886013127594947,-20
4.361189699999983,-103.0,0,0,-145.31396067973836,12,1200,20,-125,-0.31396067973835284,-20
4.6783432000000005,-111.0,0,0,-145.33935424471724,12,1200,20,-125,-0.33935424471722364,-20
4.995341699999983,-119.0,0,0,-145.36454827469618,12,1200,20,-125,-0.3645482746961898,-20
5.3110605999999905,-127.0,0,0,-145.38833424667638,12,1200,20,-125,-0.38833424667639715,-20
5.628213700000003,-136.0,0,0,-145.41705632615248,12,1200,20,-125,-0.41705632615247007,-20
5.946147300000007,-145.0,0,0,-145.44669670762775,12,1200,20,-125,-0.4466967076277576,-20
6.26253890000001,-154.0,0,0,-145.47300544160584,12,1200,20,-125,-0.473005441605833,-20
6.580653799999993,-163.0,0,0,-145.5042121160798,12,1200,20,-125,-0.504212116079797,-20
6.898389399999985,-172.0,0,0,-145.53220712955647,12,1200,20,-125,-0.5322071295564803,-20
7.215204099999994,-181.0,0,0,-145.55917794503404,12,1200,20,-125,-0.5591779450340342,-20
7.532966700000003,-190.0,0,0,-145.58944962250882,12,1200,20,-125,-0.5894496225088085,-20
7.8511139999999955,-199.0,0,0,-145.6187964979843,12,1200,20,-125,-0.6187964979843218,-20
8.169012500000008,-208.0,0,0,-145.64692344696093,12,1200,20,-125,-0.6469234469609225,-20
8.486880999999983,-217.0,0,0,-145.67547056193706,12,1200,20,-125,-0.6754705619370538,-20
8.805196300000006,-226.0,0,0,-145.70506838891248,12,1200,20,-125,-0.7050683889124942,-20
9.124265399999985,-235.0,0,0,-145.73545427488708,12,1200,20,-125,-0.7354542748870725,-20
9.442091699999992,-244.0,0,0,-145.76119398786568,12,1200,20,-125,-0.7611939878656888,-20
9.760214200000007,-254.0,0,0,-145.79212502433995,12,1200,20,-125,-0.7921250243399341,-20
10.078357600000004,-264.0,0,0,-145.82399140531334,12,1200,20,-125,-0.823991405313332,-20
10.396276699999987,-274.0,0,0,-145.8552023782873,12,1200,20,-125,-0.8552023782872862,-20
10.715669200000008,-284.0,0,0,-145.89110507425747,12,1200,20,-125,-0.89110507425747,-20
11.03456779999999,-294.0,0,0,-145.92161695323193,12,1200,20,-125,-0.9216169532319364,-20
11.350955499999998,-304.0,0,0,-145.9459992222117,12,1200,20,-125,-0.9459992222116883,-20
11.670028900000005,-314.0,0,0,-145.98593680517843,12,1200,20,-125,-0.9859368051784099,-20
11.988962999999984,-324.0,0,0,-146.01739977815208,12,1200,20,-125,-1.0173997781520985,-20
12.307811499999985,-334.0,0,0,-146.04901156412583,12,1200,20,-125,-1.0490115641258282,-20
12.627167200000002,-344.0,0,0,-146.08261582209786,12,1200,20,-125,-1.0826158220978774,-20
12.944102999999984,-354.0,0,0,-146.10610594107817,12,1200,20,-125,-1.1061059410781813,-20
13.262546499999985,-364.0,0,0,-146.14321216404733,12,1200,20,-125,-1.1432121640473258,-20
13.581396899999987,-375.0,0,0,-146.17815222701822,12,1200,20,-125,-1.1781522270182148,-20
13.900784399999992,-386.0,0,0,-146.2152694364873,12,1200,20,-125,-1.2152694364872938,-20
14.219891399999995,-397.0,0,0,-146.24930390395892,12,1200,20,-125,-1.249303903958923,-20
14.54007089999999,-408.0,0,0,-146.28872248642602,12,1200,20,-125,-1.2887224864260434,-20
14.858976600000005,-419.0,0,0,-146.31867506840118,12,1200,20,-125,-1.3186750684011708,-20
15.17114810000001,-430.0,0,0,-146.3251680163957,12,1200,20,-125,-1.325168016395715,-20
15.490280399999989,-441.0,0,0,-146.38982116534171,12,1200,20,-125,-1.3898211653417214,-20
15.8094246,-452.0,0,0,-146.42497885181257,12,1200,20,-125,-1.424978851812566,-20
16.129397600000004,-463.0,0,0,-146.46387647378012,12,1200,20,-125,-1.4638764737801233,-20
16.448347799999993,-474.0,0,0,-146.49428168575471,12,1200,20,-125,-1.494281685754714,-20
16.7579245,-485.0,0,0,-146.484420275263,12,1200,20,-125,-1.4844202752630216,-20
17.0793673,-497.0,0,0,-146.57828414668478,12,1200,20,-125,-1.5782841466847621,-20
17.400490899999994,-509.0,0,0,-146.6152517066539,12,1200,20,-125,-1.6152517066539207,-20
17.720994700000006,-521.0,0,0,-146.65059456862457,12,1200,20,-125,-1.6505945686245638,-20
18.041080599999987,-533.0,0,0,-146.6868526915942,12,1200,20,-125,-1.6868526915941888,-20
18.360279700000007,-545.0,0,0,-146.72048314756637,12,1200,20,-125,-1.7204831475663718,-20
18.680365899999998,-557.0,0,0,-146.76367496053024,12,1200,20,-125,-1.7636749605302242,-20
19.000201199999992,-569.0,0,0,-146.8006727374994,12,1200,20,-125,-1.8006727374994058,-20
19.319807999999995,-581.0,0,0,-146.83773909846855,12,1200,20,-125,-1.837739098468565,-20
19.640154300000006,-593.0,0,0,-146.88043277943302,12,1200,20,-125,-1.8804327794330387,-20
19.96124259999999,-605.0,0,0,-146.92331891539715,12,1200,20,-125,-1.923318915397146,-20
20.2814104,-618.0,0,0,-146.95782609536852,12,1200,20,-125,-1.957826095368522,-20
20.60258300000001,-631.0,0,0,-147.00572288532862,12,1200,20,-125,-2.0057228853286344,-20
20.9317346,-644.0,0,0,-147.0983414482513,12,1200,20,-125,-2.0983414482513103,-20
21.260847499999983,-657.0,0,0,-147.14087941271583,12,1200,20,-125,-2.140879412715831,-20
